Angle		Time-Period
0			0.999402
0.00314159			0.999402
0.00628319			0.999404
0.00942478			0.999407
0.0125664			0.999412
0.015708			0.999417
0.0188496			0.999424
0.0219911			0.999432
0.0251327			0.999441
0.0282743			0.999452
0.0314159			0.999463
0.0345575			0.999476
0.0376991			0.999491
0.0408407			0.999506
0.0439823			0.999523
0.0471239			0.999541
0.0502655			0.99956
0.0534071			0.99958
0.0565487			0.999602
0.0596903			0.999624
0.0628319			0.999648
0.0659734			0.999674
0.069115			0.9997
0.0722566			0.999728
0.0753982			0.999757
0.0785398			0.999787
0.0816814			0.999819
0.084823			0.999851
0.0879646			0.999885
0.0911062			0.999921
0.0942478			0.999957
0.0973894			0.999995
0.100531			1.00003
0.103673			1.00007
0.106814			1.00011
0.109956			1.00016
0.113097			1.0002
0.116239			1.00025
0.119381			1.00029
0.122522			1.00034
0.125664			1.00039
0.128805			1.00044
0.131947			1.00049
0.135088			1.00054
0.13823			1.0006
0.141372			1.00065
0.144513			1.00071
0.147655			1.00077
0.150796			1.00082
0.153938			1.00088
0.15708			1.00095
0.160221			1.00101
0.163363			1.00107
0.166504			1.00114
0.169646			1.0012
0.172788			1.00127
0.175929			1.00134
0.179071			1.00141
0.182212			1.00148
0.185354			1.00155
0.188496			1.00163
0.191637			1.0017
0.194779			1.00178
0.19792			1.00185
0.201062			1.00193
0.204204			1.00201
0.207345			1.00209
0.210487			1.00218
0.213628			1.00226
0.21677			1.00234
0.219911			1.00243
0.223053			1.00252
0.226195			1.00261
0.229336			1.0027
0.232478			1.00279
0.235619			1.00288
0.238761			1.00297
0.241903			1.00307
0.245044			1.00317
0.248186			1.00326
0.251327			1.00336
0.254469			1.00346
0.257611			1.00356
0.260752			1.00367
0.263894			1.00377
0.267035			1.00387
0.270177			1.00398
0.273319			1.00409
0.27646			1.0042
0.279602			1.00431
0.282743			1.00442
0.285885			1.00453
0.289027			1.00464
0.292168			1.00476
0.29531			1.00488
0.298451			1.00499
0.301593			1.00511
0.304734			1.00523
0.307876			1.00535
0.311018			1.00548
0.314159			1.0056
0.317301			1.00573
0.320442			1.00585
0.323584			1.00598
0.326726			1.00611
0.329867			1.00624
0.333009			1.00637
0.33615			1.00651
0.339292			1.00664
0.342434			1.00678
0.345575			1.00691
0.348717			1.00705
0.351858			1.00719
0.355			1.00733
0.358142			1.00747
0.361283			1.00762
0.364425			1.00776
0.367566			1.00791
0.370708			1.00805
0.37385			1.0082
0.376991			1.00835
0.380133			1.0085
0.383274			1.00866
0.386416			1.00881
0.389557			1.00896
0.392699			1.00912
0.395841			1.00928
0.398982			1.00944
0.402124			1.0096
0.405265			1.00976
0.408407			1.00992
0.411549			1.01009
0.41469			1.01025
0.417832			1.01042
0.420973			1.01059
0.424115			1.01075
0.427257			1.01092
0.430398			1.0111
0.43354			1.01127
0.436681			1.01144
0.439823			1.01162
0.442965			1.0118
0.446106			1.01198
0.449248			1.01216
0.452389			1.01234
0.455531			1.01252
0.458673			1.0127
0.461814			1.01289
0.464956			1.01307
0.468097			1.01326
0.471239			1.01345
0.47438			1.01364
0.477522			1.01383
0.480664			1.01403
0.483805			1.01422
0.486947			1.01442
0.490088			1.01461
0.49323			1.01481
0.496372			1.01501
0.499513			1.01521
0.502655			1.01542
0.505796			1.01562
0.508938			1.01582
0.51208			1.01603
0.515221			1.01624
0.518363			1.01645
0.521504			1.01666
0.524646			1.01687
0.527788			1.01708
0.530929			1.0173
0.534071			1.01751
0.537212			1.01773
0.540354			1.01795
0.543496			1.01817
0.546637			1.01839
0.549779			1.01862
0.55292			1.01884
0.556062			1.01906
0.559203			1.01929
0.562345			1.01952
0.565487			1.01975
0.568628			1.01998
0.57177			1.02021
0.574911			1.02045
0.578053			1.02068
0.581195			1.02092
0.584336			1.02116
0.587478			1.0214
0.590619			1.02164
0.593761			1.02188
0.596903			1.02212
0.600044			1.02237
0.603186			1.02261
0.606327			1.02286
0.609469			1.02311
0.612611			1.02336
0.615752			1.02361
0.618894			1.02387
0.622035			1.02412
0.625177			1.02438
0.628319			1.02463
0.63146			1.02489
0.634602			1.02515
0.637743			1.02541
0.640885			1.02568
0.644026			1.02594
0.647168			1.02621
0.65031			1.02648
0.653451			1.02674
0.656593			1.02701
0.659734			1.02729
0.662876			1.02756
0.666018			1.02783
0.669159			1.02811
0.672301			1.02839
0.675442			1.02867
0.678584			1.02895
0.681726			1.02923
0.684867			1.02951
0.688009			1.0298
0.69115			1.03008
0.694292			1.03037
0.697434			1.03066
0.700575			1.03095
0.703717			1.03124
0.706858			1.03153
0.71			1.03183
0.713142			1.03213
0.716283			1.03242
0.719425			1.03272
0.722566			1.03302
0.725708			1.03333
0.728849			1.03363
0.731991			1.03393
0.735133			1.03424
0.738274			1.03455
0.741416			1.03486
0.744557			1.03517
0.747699			1.03548
0.750841			1.0358
0.753982			1.03611
0.757124			1.03643
0.760265			1.03675
0.763407			1.03707
0.766549			1.03739
0.76969			1.03771
0.772832			1.03804
0.775973			1.03836
0.779115			1.03869
0.782257			1.03902
0.785398			1.03935
0.78854			1.03968
0.791681			1.04002
0.794823			1.04035
0.797965			1.04069
0.801106			1.04103
0.804248			1.04137
0.807389			1.04171
0.810531			1.04205
0.813672			1.0424
0.816814			1.04274
0.819956			1.04309
0.823097			1.04344
0.826239			1.04379
0.82938			1.04414
0.832522			1.0445
0.835664			1.04485
0.838805			1.04521
0.841947			1.04557
0.845088			1.04593
0.84823			1.04629
0.851372			1.04665
0.854513			1.04702
0.857655			1.04738
0.860796			1.04775
0.863938			1.04812
0.86708			1.04849
0.870221			1.04886
0.873363			1.04924
0.876504			1.04961
0.879646			1.04999
0.882788			1.05037
0.885929			1.05075
0.889071			1.05113
0.892212			1.05152
0.895354			1.0519
0.898495			1.05229
0.901637			1.05268
0.904779			1.05307
0.90792			1.05346
0.911062			1.05386
0.914203			1.05425
0.917345			1.05465
0.920487			1.05505
0.923628			1.05545
0.92677			1.05585
0.929911			1.05625
0.933053			1.05666
0.936195			1.05707
0.939336			1.05747
0.942478			1.05788
0.945619			1.0583
0.948761			1.05871
0.951903			1.05913
0.955044			1.05954
0.958186			1.05996
0.961327			1.06038
0.964469			1.0608
0.967611			1.06123
0.970752			1.06165
0.973894			1.06208
0.977035			1.06251
0.980177			1.06294
0.983319			1.06337
0.98646			1.06381
0.989602			1.06424
0.992743			1.06468
0.995885			1.06512
0.999026			1.06556
1.00217			1.066
1.00531			1.06645
1.00845			1.06689
1.01159			1.06734
1.01473			1.06779
1.01788			1.06824
1.02102			1.06869
1.02416			1.06915
1.0273			1.06961
1.03044			1.07006
1.03358			1.07053
1.03673			1.07099
1.03987			1.07145
1.04301			1.07192
1.04615			1.07238
1.04929			1.07285
1.05243			1.07332
1.05558			1.0738
1.05872			1.07427
1.06186			1.07475
1.065			1.07523
1.06814			1.07571
1.07128			1.07619
1.07442			1.07667
1.07757			1.07716
1.08071			1.07764
1.08385			1.07813
1.08699			1.07862
1.09013			1.07912
1.09327			1.07961
1.09642			1.08011
1.09956			1.08061
1.1027			1.08111
1.10584			1.08161
1.10898			1.08211
1.11212			1.08262
1.11527			1.08313
1.11841			1.08364
1.12155			1.08415
1.12469			1.08466
1.12783			1.08518
1.13097			1.0857
1.13411			1.08621
1.13726			1.08674
1.1404			1.08726
1.14354			1.08778
1.14668			1.08831
1.14982			1.08884
1.15296			1.08937
1.15611			1.0899
1.15925			1.09044
1.16239			1.09097
1.16553			1.09151
1.16867			1.09205
1.17181			1.0926
1.17496			1.09314
1.1781			1.09369
1.18124			1.09424
1.18438			1.09479
1.18752			1.09534
1.19066			1.09589
1.19381			1.09645
1.19695			1.09701
1.20009			1.09757
1.20323			1.09813
1.20637			1.0987
1.20951			1.09926
1.21265			1.09983
1.2158			1.1004
1.21894			1.10097
1.22208			1.10155
1.22522			1.10213
1.22836			1.10271
1.2315			1.10329
1.23465			1.10387
1.23779			1.10445
1.24093			1.10504
1.24407			1.10563
1.24721			1.10622
1.25035			1.10682
1.2535			1.10741
1.25664			1.10801
1.25978			1.10861
1.26292			1.10921
1.26606			1.10982
1.2692			1.11042
1.27235			1.11103
1.27549			1.11164
1.27863			1.11225
1.28177			1.11287
1.28491			1.11349
1.28805			1.11411
1.29119			1.11473
1.29434			1.11535
1.29748			1.11598
1.30062			1.1166
1.30376			1.11723
1.3069			1.11787
1.31004			1.1185
1.31319			1.11914
1.31633			1.11978
1.31947			1.12042
1.32261			1.12106
1.32575			1.12171
1.32889			1.12236
1.33204			1.12301
1.33518			1.12366
1.33832			1.12431
1.34146			1.12497
1.3446			1.12563
1.34774			1.12629
1.35088			1.12696
1.35403			1.12762
1.35717			1.12829
1.36031			1.12896
1.36345			1.12964
1.36659			1.13031
1.36973			1.13099
1.37288			1.13167
1.37602			1.13235
1.37916			1.13304
1.3823			1.13373
1.38544			1.13442
1.38858			1.13511
1.39173			1.1358
1.39487			1.1365
1.39801			1.1372
1.40115			1.1379
1.40429			1.13861
1.40743			1.13931
1.41058			1.14002
1.41372			1.14074
1.41686			1.14145
1.42			1.14217
1.42314			1.14289
1.42628			1.14361
1.42942			1.14433
1.43257			1.14506
1.43571			1.14579
1.43885			1.14652
1.44199			1.14725
1.44513			1.14799
1.44827			1.14873
1.45142			1.14947
1.45456			1.15022
1.4577			1.15096
1.46084			1.15171
1.46398			1.15246
1.46712			1.15322
1.47027			1.15398
1.47341			1.15474
1.47655			1.1555
1.47969			1.15626
1.48283			1.15703
1.48597			1.1578
1.48911			1.15857
1.49226			1.15935
1.4954			1.16013
1.49854			1.16091
1.50168			1.16169
1.50482			1.16248
1.50796			1.16327
1.51111			1.16406
1.51425			1.16486
1.51739			1.16565
1.52053			1.16645
1.52367			1.16726
1.52681			1.16806
1.52996			1.16887
1.5331			1.16968
1.53624			1.17049
1.53938			1.17131
1.54252			1.17213
1.54566			1.17295
1.54881			1.17378
1.55195			1.17461
1.55509			1.17544
1.55823			1.17627
1.56137			1.17711
1.56451			1.17795
1.56765			1.17879
